Time [s]	Biesel [m]	Stokes II 	StokesIII	Cnoidal
0.000000	-0.073596	-0.015416	0.284441	-0.019332
0.100000	-0.068985	-0.025495	1.117873	-0.007690
0.200000	-0.061359	-0.040078	1.548877	0.009971
0.300000	-0.051052	-0.055659	1.083834	0.034647
0.400000	-0.038513	-0.068213	0.099954	0.064728
0.500000	-0.024291	-0.073948	-0.532980	0.093776
0.600000	-0.009007	-0.070035	-0.323307	0.111211
0.700000	0.006670	-0.055176	0.352719	0.108744
0.800000	0.022056	-0.029915	0.634435	0.087634
0.900000	0.036478	0.003368	0.050612	0.057491
1.000000	0.049306	0.040783	-0.992656	0.028295
1.100000	0.059978	0.077515	-1.602616	0.005244
1.200000	0.068030	0.108595	-1.283057	-0.010878
1.300000	0.073108	0.129687	-0.428917	-0.021359
1.400000	0.074991	0.137800	0.064049	-0.027880
1.500000	0.073596	0.131776	-0.311217	-0.031832
1.600000	0.068985	0.112476	-1.169086	-0.034188
1.700000	0.061359	0.082641	-1.614557	-0.035578
1.800000	0.051052	0.046444	-1.132225	-0.036387
1.900000	0.038513	0.008813	-0.096498	-0.036848
2.000000	0.024291	-0.025366	0.602331	-0.037093
2.100000	0.009007	-0.052021	0.439974	-0.037194
2.200000	-0.006670	-0.068517	-0.232372	-0.037181
2.300000	-0.022056	-0.074027	-0.556030	-0.037050
2.400000	-0.036478	-0.069588	-0.037447	-0.036763
2.500000	-0.049306	-0.057829	0.950081	-0.036236
2.600000	-0.059978	-0.042441	1.537161	-0.035317
2.700000	-0.068030	-0.027465	1.228391	-0.033744
2.800000	-0.073108	-0.016529	0.398902	-0.031084
2.900000	-0.074991	-0.012181	-0.080670	-0.026635
3.000000	-0.073596	-0.015416	0.284441	-0.019332
3.100000	-0.068985	-0.025495	1.117873	-0.007690
3.200000	-0.061359	-0.040078	1.548877	0.009971
3.300000	-0.051052	-0.055659	1.083834	0.034647
3.400000	-0.038513	-0.068213	0.099954	0.064728
3.500000	-0.024291	-0.073948	-0.532980	0.093776
3.600000	-0.009007	-0.070035	-0.323307	0.111211
3.700000	0.006670	-0.055176	0.352719	0.108744
3.800000	0.022056	-0.029915	0.634435	0.087634
3.900000	0.036478	0.003368	0.050612	0.057491
4.000000	0.049306	0.040783	-0.992656	0.028295
4.100000	0.059978	0.077515	-1.602616	0.005244
4.200000	0.068030	0.108595	-1.283057	-0.010878
4.300000	0.073108	0.129687	-0.428917	-0.021359
4.400000	0.074991	0.137800	0.064049	-0.027880
4.500000	0.073596	0.131776	-0.311217	-0.031832
4.600000	0.068985	0.112476	-1.169086	-0.034188
4.700000	0.061359	0.082641	-1.614557	-0.035578
4.800000	0.051052	0.046444	-1.132225	-0.036387
4.900000	0.038513	0.008813	-0.096498	-0.036848
5.000000	0.024291	-0.025366	0.602331	-0.037093
5.100000	0.009007	-0.052021	0.439974	-0.037194
5.200000	-0.006670	-0.068517	-0.232372	-0.037181
5.300000	-0.022056	-0.074027	-0.556030	-0.037050
5.400000	-0.036478	-0.069588	-0.037447	-0.036763
5.500000	-0.049306	-0.057829	0.950081	-0.036236
5.600000	-0.059978	-0.042441	1.537161	-0.035317
5.700000	-0.068030	-0.027465	1.228391	-0.033744
5.800000	-0.073108	-0.016529	0.398902	-0.031084
5.900000	-0.074991	-0.012181	-0.080670	-0.026635
6.000000	-0.073596	-0.015416	0.284441	-0.019332
6.100000	-0.068985	-0.025495	1.117873	-0.007690
6.200000	-0.061359	-0.040078	1.548877	0.009971
6.300000	-0.051052	-0.055659	1.083834	0.034647
6.400000	-0.038513	-0.068213	0.099954	0.064728
6.500000	-0.024291	-0.073948	-0.532980	0.093776
6.600000	-0.009007	-0.070035	-0.323307	0.111211
6.700000	0.006670	-0.055176	0.352719	0.108744
6.800000	0.022056	-0.029915	0.634435	0.087634
6.900000	0.036478	0.003368	0.050612	0.057491
7.000000	0.049306	0.040783	-0.992656	0.028295
7.100000	0.059978	0.077515	-1.602616	0.005244
7.200000	0.068030	0.108595	-1.283057	-0.010878
7.300000	0.073108	0.129687	-0.428917	-0.021359
7.400000	0.074991	0.137800	0.064049	-0.027880
7.500000	0.073596	0.131776	-0.311217	-0.031832
7.600000	0.068985	0.112476	-1.169086	-0.034188
7.700000	0.061359	0.082641	-1.614557	-0.035578
7.800000	0.051052	0.046444	-1.132225	-0.036387
7.900000	0.038513	0.008813	-0.096498	-0.036848
8.000000	0.024291	-0.025366	0.602331	-0.037093
8.100000	0.009007	-0.052021	0.439974	-0.037194
8.200000	-0.006670	-0.068517	-0.232372	-0.037181
8.300000	-0.022056	-0.074027	-0.556030	-0.037050
8.400000	-0.036478	-0.069588	-0.037447	-0.036763
8.500000	-0.049306	-0.057829	0.950081	-0.036236
8.600000	-0.059978	-0.042441	1.537161	-0.035317
8.700000	-0.068030	-0.027465	1.228391	-0.033744
8.800000	-0.073108	-0.016529	0.398902	-0.031084
8.900000	-0.074991	-0.012181	-0.080670	-0.026635
9.000000	-0.073596	-0.015416	0.284441	-0.019332
9.100000	-0.068985	-0.025495	1.117873	-0.007690
9.200000	-0.061359	-0.040078	1.548877	0.009971
9.300000	-0.051052	-0.055659	1.083834	0.034647
9.400000	-0.038513	-0.068213	0.099954	0.064728
9.500000	-0.024291	-0.073948	-0.532980	0.093776
9.600000	-0.009007	-0.070035	-0.323307	0.111211
9.700000	0.006670	-0.055176	0.352719	0.108744
9.800000	0.022056	-0.029915	0.634435	0.087634
9.900000	0.036478	0.003368	0.050612	0.057491
10.000000	0.049306	0.040783	-0.992656	0.028295
10.100000	0.059978	0.077515	-1.602616	0.005244
10.200000	0.068030	0.108595	-1.283057	-0.010878
10.300000	0.073108	0.129687	-0.428917	-0.021359
10.400000	0.074991	0.137800	0.064049	-0.027880
10.500000	0.073596	0.131776	-0.311217	-0.031832
10.600000	0.068985	0.112476	-1.169086	-0.034188
10.700000	0.061359	0.082641	-1.614557	-0.035578
10.800000	0.051052	0.046444	-1.132225	-0.036387
10.900000	0.038513	0.008813	-0.096498	-0.036848
11.000000	0.024291	-0.025366	0.602331	-0.037093
11.100000	0.009007	-0.052021	0.439974	-0.037194
11.200000	-0.006670	-0.068517	-0.232372	-0.037181
11.300000	-0.022056	-0.074027	-0.556030	-0.037050
11.400000	-0.036478	-0.069588	-0.037447	-0.036763
11.500000	-0.049306	-0.057829	0.950081	-0.036236
11.600000	-0.059978	-0.042441	1.537161	-0.035317
11.700000	-0.068030	-0.027465	1.228391	-0.033744
11.800000	-0.073108	-0.016529	0.398902	-0.031084
11.900000	-0.074991	-0.012181	-0.080670	-0.026635
12.000000	-0.073596	-0.015416	0.284441	-0.019332
12.100000	-0.068985	-0.025495	1.117873	-0.007690
12.200000	-0.061359	-0.040078	1.548877	0.009971
12.300000	-0.051052	-0.055659	1.083834	0.034647
12.400000	-0.038513	-0.068213	0.099954	0.064728
12.500000	-0.024291	-0.073948	-0.532980	0.093776
12.600000	-0.009007	-0.070035	-0.323307	0.111211
12.700000	0.006670	-0.055176	0.352719	0.108744
12.800000	0.022056	-0.029915	0.634435	0.087634
12.900000	0.036478	0.003368	0.050612	0.057491
13.000000	0.049306	0.040783	-0.992656	0.028295
13.100000	0.059978	0.077515	-1.602616	0.005244
13.200000	0.068030	0.108595	-1.283057	-0.010878
13.300000	0.073108	0.129687	-0.428917	-0.021359
13.400000	0.074991	0.137800	0.064049	-0.027880
13.500000	0.073596	0.131776	-0.311217	-0.031832
13.600000	0.068985	0.112476	-1.169086	-0.034188
13.700000	0.061359	0.082641	-1.614557	-0.035578
13.800000	0.051052	0.046444	-1.132225	-0.036387
13.900000	0.038513	0.008813	-0.096498	-0.036848
14.000000	0.024291	-0.025366	0.602331	-0.037093
14.100000	0.009007	-0.052021	0.439974	-0.037194
14.200000	-0.006670	-0.068517	-0.232372	-0.037181
14.300000	-0.022056	-0.074027	-0.556030	-0.037050
14.400000	-0.036478	-0.069588	-0.037447	-0.036763
14.500000	-0.049306	-0.057829	0.950081	-0.036236
14.600000	-0.059978	-0.042441	1.537161	-0.035317
14.700000	-0.068030	-0.027465	1.228391	-0.033744
14.800000	-0.073108	-0.016529	0.398902	-0.031084
14.900000	-0.074991	-0.012181	-0.080670	-0.026635
15.000000	-0.073596	-0.015416	0.284441	-0.019332
15.100000	-0.068985	-0.025495	1.117873	-0.007690
15.200000	-0.061359	-0.040078	1.548877	0.009971
15.300000	-0.051052	-0.055659	1.083834	0.034647
15.400000	-0.038513	-0.068213	0.099954	0.064728
15.500000	-0.024291	-0.073948	-0.532980	0.093776
15.600000	-0.009007	-0.070035	-0.323307	0.111211
15.700000	0.006670	-0.055176	0.352719	0.108744
15.800000	0.022056	-0.029915	0.634435	0.087634
15.900000	0.036478	0.003368	0.050612	0.057491
16.000000	0.049306	0.040783	-0.992656	0.028295
16.100000	0.059978	0.077515	-1.602616	0.005244
16.200000	0.068030	0.108595	-1.283057	-0.010878
16.300000	0.073108	0.129687	-0.428917	-0.021359
16.400000	0.074991	0.137800	0.064049	-0.027880
16.500000	0.073596	0.131776	-0.311217	-0.031832
16.600000	0.068985	0.112476	-1.169086	-0.034188
16.700000	0.061359	0.082641	-1.614557	-0.035578
16.800000	0.051052	0.046444	-1.132225	-0.036387
16.900000	0.038513	0.008813	-0.096498	-0.036848
17.000000	0.024291	-0.025366	0.602331	-0.037093
17.100000	0.009007	-0.052021	0.439974	-0.037194
17.200000	-0.006670	-0.068517	-0.232372	-0.037181
17.300000	-0.022056	-0.074027	-0.556030	-0.037050
17.400000	-0.036478	-0.069588	-0.037447	-0.036763
17.500000	-0.049306	-0.057829	0.950081	-0.036236
17.600000	-0.059978	-0.042441	1.537161	-0.035317
17.700000	-0.068030	-0.027465	1.228391	-0.033744
17.800000	-0.073108	-0.016529	0.398902	-0.031084
17.900000	-0.074991	-0.012181	-0.080670	-0.026635
18.000000	-0.073596	-0.015416	0.284441	-0.019332
18.100000	-0.068985	-0.025495	1.117873	-0.007690
18.200000	-0.061359	-0.040078	1.548877	0.009971
18.300000	-0.051052	-0.055659	1.083834	0.034647
18.400000	-0.038513	-0.068213	0.099954	0.064728
18.500000	-0.024291	-0.073948	-0.532980	0.093776
18.600000	-0.009007	-0.070035	-0.323307	0.111211
18.700000	0.006670	-0.055176	0.352719	0.108744
18.800000	0.022056	-0.029915	0.634435	0.087634
18.900000	0.036478	0.003368	0.050612	0.057491
19.000000	0.049306	0.040783	-0.992656	0.028295
19.100000	0.059978	0.077515	-1.602616	0.005244
19.200000	0.068030	0.108595	-1.283057	-0.010878
19.300000	0.073108	0.129687	-0.428917	-0.021359
19.400000	0.074991	0.137800	0.064049	-0.027880
19.500000	0.073596	0.131776	-0.311217	-0.031832
19.600000	0.068985	0.112476	-1.169086	-0.034188
19.700000	0.061359	0.082641	-1.614557	-0.035578
19.800000	0.051052	0.046444	-1.132225	-0.036387
19.900000	0.038513	0.008813	-0.096498	-0.036848
20.000000	0.024291	-0.025366	0.602331	-0.037093
20.100000	0.009007	-0.052021	0.439974	-0.037194
20.200000	-0.006670	-0.068517	-0.232372	-0.037181
20.300000	-0.022056	-0.074027	-0.556030	-0.037050
20.400000	-0.036478	-0.069588	-0.037447	-0.036763
20.500000	-0.049306	-0.057829	0.950081	-0.036236
20.600000	-0.059978	-0.042441	1.537161	-0.035317
20.700000	-0.068030	-0.027465	1.228391	-0.033744
20.800000	-0.073108	-0.016529	0.398902	-0.031084
20.900000	-0.074991	-0.012181	-0.080670	-0.026635
21.000000	-0.073596	-0.015416	0.284441	-0.019332
21.100000	-0.068985	-0.025495	1.117873	-0.007690
21.200000	-0.061359	-0.040078	1.548877	0.009971
21.300000	-0.051052	-0.055659	1.083834	0.034647
21.400000	-0.038513	-0.068213	0.099954	0.064728
21.500000	-0.024291	-0.073948	-0.532980	0.093776
21.600000	-0.009007	-0.070035	-0.323307	0.111211
21.700000	0.006670	-0.055176	0.352719	0.108744
21.800000	0.022056	-0.029915	0.634435	0.087634
21.900000	0.036478	0.003368	0.050612	0.057491
22.000000	0.049306	0.040783	-0.992656	0.028295
22.100000	0.059978	0.077515	-1.602616	0.005244
22.200000	0.068030	0.108595	-1.283057	-0.010878
22.300000	0.073108	0.129687	-0.428917	-0.021359
22.400000	0.074991	0.137800	0.064049	-0.027880
22.500000	0.073596	0.131776	-0.311217	-0.031832
22.600000	0.068985	0.112476	-1.169086	-0.034188
22.700000	0.061359	0.082641	-1.614557	-0.035578
22.800000	0.051052	0.046444	-1.132225	-0.036387
22.900000	0.038513	0.008813	-0.096498	-0.036848
23.000000	0.024291	-0.025366	0.602331	-0.037093
23.100000	0.009007	-0.052021	0.439974	-0.037194
23.200000	-0.006670	-0.068517	-0.232372	-0.037181
23.300000	-0.022056	-0.074027	-0.556030	-0.037050
23.400000	-0.036478	-0.069588	-0.037447	-0.036763
23.500000	-0.049306	-0.057829	0.950081	-0.036236
23.600000	-0.059978	-0.042441	1.537161	-0.035317
23.700000	-0.068030	-0.027465	1.228391	-0.033744
23.800000	-0.073108	-0.016529	0.398902	-0.031084
23.900000	-0.074991	-0.012181	-0.080670	-0.026635
24.000000	-0.073596	-0.015416	0.284441	-0.019332
24.100000	-0.068985	-0.025495	1.117873	-0.007690
24.200000	-0.061359	-0.040078	1.548877	0.009971
24.300000	-0.051052	-0.055659	1.083834	0.034647
24.400000	-0.038513	-0.068213	0.099954	0.064728
24.500000	-0.024291	-0.073948	-0.532980	0.093776
24.600000	-0.009007	-0.070035	-0.323307	0.111211
24.700000	0.006670	-0.055176	0.352719	0.108744
24.800000	0.022056	-0.029915	0.634435	0.087634
24.900000	0.036478	0.003368	0.050612	0.057491
25.000000	0.049306	0.040783	-0.992656	0.028295
25.100000	0.059978	0.077515	-1.602616	0.005244
25.200000	0.068030	0.108595	-1.283057	-0.010878
25.300000	0.073108	0.129687	-0.428917	-0.021359
25.400000	0.074991	0.137800	0.064049	-0.027880
25.500000	0.073596	0.131776	-0.311217	-0.031832
25.600000	0.068985	0.112476	-1.169086	-0.034188
25.700000	0.061359	0.082641	-1.614557	-0.035578
25.800000	0.051052	0.046444	-1.132225	-0.036387
25.900000	0.038513	0.008813	-0.096498	-0.036848
26.000000	0.024291	-0.025366	0.602331	-0.037093
26.100000	0.009007	-0.052021	0.439974	-0.037194
26.200000	-0.006670	-0.068517	-0.232372	-0.037181
26.300000	-0.022056	-0.074027	-0.556030	-0.037050
26.400000	-0.036478	-0.069588	-0.037447	-0.036763
26.500000	-0.049306	-0.057829	0.950081	-0.036236
26.600000	-0.059978	-0.042441	1.537161	-0.035317
26.700000	-0.068030	-0.027465	1.228391	-0.033744
26.800000	-0.073108	-0.016529	0.398902	-0.031084
26.900000	-0.074991	-0.012181	-0.080670	-0.026635
27.000000	-0.073596	-0.015416	0.284441	-0.019332
27.100000	-0.068985	-0.025495	1.117873	-0.007690
27.200000	-0.061359	-0.040078	1.548877	0.009971
27.300000	-0.051052	-0.055659	1.083834	0.034647
27.400000	-0.038513	-0.068213	0.099954	0.064728
27.500000	-0.024291	-0.073948	-0.532980	0.093776
27.600000	-0.009007	-0.070035	-0.323307	0.111211
27.700000	0.006670	-0.055176	0.352719	0.108744
27.800000	0.022056	-0.029915	0.634435	0.087634
27.900000	0.036478	0.003368	0.050612	0.057491
28.000000	0.049306	0.040783	-0.992656	0.028295
28.100000	0.059978	0.077515	-1.602616	0.005244
28.200000	0.068030	0.108595	-1.283057	-0.010878
28.300000	0.073108	0.129687	-0.428917	-0.021359
28.400000	0.074991	0.137800	0.064049	-0.027880
28.500000	0.073596	0.131776	-0.311217	-0.031832
28.600000	0.068985	0.112476	-1.169086	-0.034188
28.700000	0.061359	0.082641	-1.614557	-0.035578
28.800000	0.051052	0.046444	-1.132225	-0.036387
28.900000	0.038513	0.008813	-0.096498	-0.036848
29.000000	0.024291	-0.025366	0.602331	-0.037093
29.100000	0.009007	-0.052021	0.439974	-0.037194
29.200000	-0.006670	-0.068517	-0.232372	-0.037181
29.300000	-0.022056	-0.074027	-0.556030	-0.037050
29.400000	-0.036478	-0.069588	-0.037447	-0.036763
29.500000	-0.049306	-0.057829	0.950081	-0.036236
29.600000	-0.059978	-0.042441	1.537161	-0.035317
29.700000	-0.068030	-0.027465	1.228391	-0.033744
29.800000	-0.073108	-0.016529	0.398902	-0.031084
29.900000	-0.074991	-0.012181	-0.080670	-0.026635
30.000000	-0.073596	-0.015416	0.284441	-0.019332
30.100000	-0.068985	-0.025495	1.117873	-0.007690
30.200000	-0.061359	-0.040078	1.548877	0.009971
30.300000	-0.051052	-0.055659	1.083834	0.034647
30.400000	-0.038513	-0.068213	0.099954	0.064728
30.500000	-0.024291	-0.073948	-0.532980	0.093776
30.600000	-0.009007	-0.070035	-0.323307	0.111211
30.700000	0.006670	-0.055176	0.352719	0.108744
30.800000	0.022056	-0.029915	0.634435	0.087634
30.900000	0.036478	0.003368	0.050612	0.057491
31.000000	0.049306	0.040783	-0.992656	0.028295
31.100000	0.059978	0.077515	-1.602616	0.005244
31.200000	0.068030	0.108595	-1.283057	-0.010878
31.300000	0.073108	0.129687	-0.428917	-0.021359
31.400000	0.074991	0.137800	0.064049	-0.027880
31.500000	0.073596	0.131776	-0.311217	-0.031832
31.600000	0.068985	0.112476	-1.169086	-0.034188
31.700000	0.061359	0.082641	-1.614557	-0.035578
31.800000	0.051052	0.046444	-1.132225	-0.036387
31.900000	0.038513	0.008813	-0.096498	-0.036848
32.000000	0.024291	-0.025366	0.602331	-0.037093
32.100000	0.009007	-0.052021	0.439974	-0.037194
32.200000	-0.006670	-0.068517	-0.232372	-0.037181
32.300000	-0.022056	-0.074027	-0.556030	-0.037050
32.400000	-0.036478	-0.069588	-0.037447	-0.036763
32.500000	-0.049306	-0.057829	0.950081	-0.036236
32.600000	-0.059978	-0.042441	1.537161	-0.035317
32.700000	-0.068030	-0.027465	1.228391	-0.033744
32.800000	-0.073108	-0.016529	0.398902	-0.031084
32.900000	-0.074991	-0.012181	-0.080670	-0.026635
33.000000	-0.073596	-0.015416	0.284441	-0.019332
33.100000	-0.068985	-0.025495	1.117873	-0.007690
33.200000	-0.061359	-0.040078	1.548877	0.009971
33.300000	-0.051052	-0.055659	1.083834	0.034647
33.400000	-0.038513	-0.068213	0.099954	0.064728
33.500000	-0.024291	-0.073948	-0.532980	0.093776
33.600000	-0.009007	-0.070035	-0.323307	0.111211
33.700000	0.006670	-0.055176	0.352719	0.108744
33.800000	0.022056	-0.029915	0.634435	0.087634
33.900000	0.036478	0.003368	0.050612	0.057491
34.000000	0.049306	0.040783	-0.992656	0.028295
34.100000	0.059978	0.077515	-1.602616	0.005244
34.200000	0.068030	0.108595	-1.283057	-0.010878
34.300000	0.073108	0.129687	-0.428917	-0.021359
34.400000	0.074991	0.137800	0.064049	-0.027880
34.500000	0.073596	0.131776	-0.311217	-0.031832
34.600000	0.068985	0.112476	-1.169086	-0.034188
34.700000	0.061359	0.082641	-1.614557	-0.035578
34.800000	0.051052	0.046444	-1.132225	-0.036387
34.900000	0.038513	0.008813	-0.096498	-0.036848
35.000000	0.024291	-0.025366	0.602331	-0.037093
35.100000	0.009007	-0.052021	0.439974	-0.037194
35.200000	-0.006670	-0.068517	-0.232372	-0.037181
35.300000	-0.022056	-0.074027	-0.556030	-0.037050
35.400000	-0.036478	-0.069588	-0.037447	-0.036763
35.500000	-0.049306	-0.057829	0.950081	-0.036236
35.600000	-0.059978	-0.042441	1.537161	-0.035317
35.700000	-0.068030	-0.027465	1.228391	-0.033744
35.800000	-0.073108	-0.016529	0.398902	-0.031084
35.900000	-0.074991	-0.012181	-0.080670	-0.026635
36.000000	-0.073596	-0.015416	0.284441	-0.019332
36.100000	-0.068985	-0.025495	1.117873	-0.007690
36.200000	-0.061359	-0.040078	1.548877	0.009971
36.300000	-0.051052	-0.055659	1.083834	0.034647
36.400000	-0.038513	-0.068213	0.099954	0.064728
36.500000	-0.024291	-0.073948	-0.532980	0.093776
36.600000	-0.009007	-0.070035	-0.323307	0.111211
36.700000	0.006670	-0.055176	0.352719	0.108744
36.800000	0.022056	-0.029915	0.634435	0.087634
36.900000	0.036478	0.003368	0.050612	0.057491
37.000000	0.049306	0.040783	-0.992656	0.028295
37.100000	0.059978	0.077515	-1.602616	0.005244
37.200000	0.068030	0.108595	-1.283057	-0.010878
37.300000	0.073108	0.129687	-0.428917	-0.021359
37.400000	0.074991	0.137800	0.064049	-0.027880
37.500000	0.073596	0.131776	-0.311217	-0.031832
37.600000	0.068985	0.112476	-1.169086	-0.034188
37.700000	0.061359	0.082641	-1.614557	-0.035578
37.800000	0.051052	0.046444	-1.132225	-0.036387
37.900000	0.038513	0.008813	-0.096498	-0.036848
38.000000	0.024291	-0.025366	0.602331	-0.037093
38.100000	0.009007	-0.052021	0.439974	-0.037194
38.200000	-0.006670	-0.068517	-0.232372	-0.037181
38.300000	-0.022056	-0.074027	-0.556030	-0.037050
38.400000	-0.036478	-0.069588	-0.037447	-0.036763
38.500000	-0.049306	-0.057829	0.950081	-0.036236
38.600000	-0.059978	-0.042441	1.537161	-0.035317
38.700000	-0.068030	-0.027465	1.228391	-0.033744
38.800000	-0.073108	-0.016529	0.398902	-0.031084
38.900000	-0.074991	-0.012181	-0.080670	-0.026635
39.000000	-0.073596	-0.015416	0.284441	-0.019332
39.100000	-0.068985	-0.025495	1.117873	-0.007690
39.200000	-0.061359	-0.040078	1.548877	0.009971
39.300000	-0.051052	-0.055659	1.083834	0.034647
39.400000	-0.038513	-0.068213	0.099954	0.064728
39.500000	-0.024291	-0.073948	-0.532980	0.093776
39.600000	-0.009007	-0.070035	-0.323307	0.111211
39.700000	0.006670	-0.055176	0.352719	0.108744
39.800000	0.022056	-0.029915	0.634435	0.087634
39.900000	0.036478	0.003368	0.050612	0.057491
40.000000	0.049306	0.040783	-0.992656	0.028295
40.100000	0.059978	0.077515	-1.602616	0.005244
40.200000	0.068030	0.108595	-1.283057	-0.010878
40.300000	0.073108	0.129687	-0.428917	-0.021359
40.400000	0.074991	0.137800	0.064049	-0.027880
40.500000	0.073596	0.131776	-0.311217	-0.031832
40.600000	0.068985	0.112476	-1.169086	-0.034188
40.700000	0.061359	0.082641	-1.614557	-0.035578
40.800000	0.051052	0.046444	-1.132225	-0.036387
40.900000	0.038513	0.008813	-0.096498	-0.036848
41.000000	0.024291	-0.025366	0.602331	-0.037093
41.100000	0.009007	-0.052021	0.439974	-0.037194
41.200000	-0.006670	-0.068517	-0.232372	-0.037181
41.300000	-0.022056	-0.074027	-0.556030	-0.037050
41.400000	-0.036478	-0.069588	-0.037447	-0.036763
